Distance_(mm),Gray_Value
0.0000,17.7097
0.0521,17.7258
0.1042,17.8226
0.1562,17.8387
0.2083,17.8710
0.2604,17.8548
0.3125,17.8871
0.3645,17.9194
0.4166,17.9839
0.4687,18.0806
0.5208,17.9516
0.5729,18.0161
0.6249,17.9516
0.6770,17.9516
0.7291,18.0323
0.7812,17.9677
0.8332,18.0968
0.8853,18.0645
0.9374,18.1452
0.9895,18.1452
1.0416,18.1774
1.0936,18.1129
1.1457,18.1452
1.1978,18.2097
1.2499,18.0806
1.3020,18.1129
1.3540,18.0968
1.4061,18.1452
1.4582,18.1613
1.5103,18.1452
1.5623,18.1452
1.6144,18.0968
1.6665,18.1452
1.7186,18.1613
1.7707,18.1290
1.8227,18.2419
1.8748,18.2581
1.9269,18.1935
1.9790,18.2742
2.0310,18.2581
2.0831,18.3065
2.1352,18.3226
2.1873,18.2581
2.2394,18.2581
2.2914,18.3226
2.3435,18.2258
2.3956,18.3387
2.4477,18.3065
2.4997,18.3871
2.5518,18.4194
2.6039,18.4677
2.6560,18.4516
2.7081,18.4516
2.7601,18.4839
2.8122,18.5323
2.8643,18.5000
2.9164,18.5645
2.9685,18.6290
3.0205,18.6129
3.0726,18.6774
3.1247,18.6452
3.1768,18.6452
3.2288,18.6613
3.2809,18.7258
3.3330,18.7742
3.3851,18.8710
3.4372,18.9032
3.4892,18.9677
3.5413,18.9194
3.5934,18.9677
3.6455,18.9839
3.6975,19.0323
3.7496,19.0323
3.8017,19.0484
3.8538,19.1613
3.9059,19.0968
3.9579,19.0968
4.0100,19.1613
4.0621,19.1613
4.1142,19.1613
4.1663,19.2419
4.2183,19.2258
4.2704,19.2903
4.3225,19.2742
4.3746,19.3871
4.4266,19.3710
4.4787,19.2903
4.5308,19.2903
4.5829,19.3065
4.6350,19.3387
4.6870,19.2419
4.7391,19.3065
4.7912,19.3548
4.8433,19.3871
4.8953,19.4194
4.9474,19.4355
4.9995,19.4032
5.0516,19.3387
5.1037,19.2903
5.1557,19.2903
5.2078,19.3387
5.2599,19.2903
5.3120,19.3226
5.3640,19.2742
5.4161,19.3065
5.4682,19.3226
5.5203,19.2742
5.5724,19.1935
5.6244,19.2742
5.6765,19.2097
5.7286,19.1613
5.7807,19.3226
5.8327,19.3548
5.8848,19.3871
5.9369,19.2258
5.9890,19.2258
6.0411,19.1452
6.0931,19.2097
6.1452,19.2581
6.1973,19.3226
6.2494,19.3710
6.3015,19.3387
6.3535,19.4516
6.4056,19.4355
6.4577,19.4516
6.5098,19.3226
6.5618,19.2581
6.6139,19.2742
6.6660,19.3065
6.7181,19.3065
6.7702,19.3387
6.8222,19.4032
6.8743,19.3871
6.9264,19.3387
6.9785,19.2419
7.0305,19.2419
7.0826,19.2742
7.1347,19.3065
7.1868,19.2581
7.2389,19.2903
7.2909,19.4032
7.3430,19.4194
7.3951,19.4194
7.4472,19.4194
7.4992,19.3710
7.5513,19.4516
7.6034,19.3548
7.6555,19.3387
7.7076,19.3548
7.7596,19.2258
7.8117,19.1290
7.8638,19.2581
7.9159,19.1774
7.9680,19.1452
8.0200,19.1129
8.0721,19.1774
8.1242,19.1290
8.1763,19.1935
8.2283,19.2419
8.2804,19.2258
8.3325,19.1774
8.3846,19.1613
8.4367,19.2097
8.4887,19.1290
8.5408,19.0806
8.5929,19.0161
8.6450,19.0000
8.6970,18.9516
8.7491,18.9677
8.8012,18.9355
8.8533,19.0484
8.9054,19.0323
8.9574,19.0484
9.0095,19.0000
9.0616,18.8710
9.1137,18.8226
9.1657,18.8871
9.2178,18.9355
9.2699,18.8871
9.3220,18.7742
9.3741,18.7742
9.4261,18.7097
9.4782,18.6935
9.5303,18.7581
9.5824,18.5806
9.6345,18.6129
9.6865,18.6613
9.7386,18.6129
9.7907,18.5968
9.8428,18.5806
9.8948,18.5968
9.9469,18.5161
9.9990,18.4355
10.0511,18.4839
10.1032,18.3548
10.1552,18.3387
10.2073,18.3387
10.2594,18.2742
10.3115,18.3871
10.3635,18.2742
10.4156,18.2258
10.4677,18.2097
10.5198,18.1774
10.5719,18.2097
10.6239,18.1290
10.6760,18.0806
10.7281,18.0000
10.7802,18.0484
10.8322,18.0000
10.8843,18.0161
10.9364,17.9677
10.9885,18.0806
11.0406,18.0000
11.0926,18.0161
11.1447,17.9355
11.1968,17.8548
11.2489,17.8871
11.3010,17.8710
11.3530,17.9032
11.4051,17.8710
11.4572,17.8226
11.5093,17.8226
11.5613,17.8065
11.6134,17.7258
11.6655,17.7581
11.7176,17.7903
11.7697,17.7581
11.8217,17.8065
11.8738,17.7742
11.9259,17.8226
11.9780,17.7258
12.0300,17.7742
12.0821,17.7903
12.1342,17.8065
12.1863,17.6935
12.2384,17.7742
12.2904,17.7258
12.3425,17.6935
12.3946,17.6774
12.4467,17.6774
12.4987,17.6452
12.5508,17.6129
12.6029,17.6613
12.6550,17.6452
12.7071,17.6452
12.7591,17.6290
12.8112,17.6452
12.8633,17.6290
12.9154,17.5645
12.9675,17.5806
13.0195,17.6129
13.0716,17.6452
13.1237,17.6452
13.1758,17.6129
13.2278,17.6935
13.2799,17.7097
13.3320,17.6613
13.3841,17.7258
13.4362,17.7419
13.4882,17.7258
13.5403,17.7903
13.5924,17.7581
13.6445,17.8226
13.6965,17.9355
13.7486,17.8871
13.8007,17.9516
13.8528,17.9677
13.9049,17.9677
13.9569,18.0000
14.0090,17.9677
14.0611,18.0161
14.1132,18.0000
14.1652,18.0645
14.2173,18.1452
14.2694,18.1613
14.3215,18.1935
14.3736,18.1613
14.4256,18.1935
14.4777,18.2581
14.5298,18.2903
14.5819,18.3548
14.6340,18.3226
14.6860,18.3710
14.7381,18.3548
14.7902,18.5484
14.8423,18.6129
14.8943,18.6452
14.9464,18.7581
14.9985,18.8387
15.0506,18.9677
15.1027,19.0484
15.1547,19.2742
15.2068,19.2903
15.2589,19.3548
15.3110,19.5645
15.3630,19.5968
15.4151,19.7419
15.4672,19.7419
15.5193,19.9194
15.5714,20.0484
15.6234,20.2742
15.6755,20.2903
15.7276,20.6290
15.7797,20.7581
15.8317,20.8226
15.8838,20.9516
15.9359,21.0968
15.9880,21.2258
16.0401,21.3226
16.0921,21.4194
16.1442,21.5323
16.1963,21.5323
16.2484,21.7258
16.3005,21.6774
16.3525,21.8065
16.4046,21.7903
16.4567,21.8710
16.5088,22.0484
16.5608,22.0484
16.6129,22.1129
16.6650,22.0645
16.7171,22.1774
16.7692,22.0968
16.8212,22.2097
16.8733,22.4194
16.9254,22.5968
16.9775,22.5161
17.0295,22.7581
17.0816,22.8710
17.1337,23.0323
17.1858,23.0000
17.2379,23.1935
17.2899,23.4516
17.3420,23.6452
17.3941,23.8548
17.4462,23.9677
17.4982,23.9194
17.5503,24.0968
17.6024,24.3387
17.6545,24.5645
17.7066,24.7258
17.7586,25.0323
17.8107,25.0806
17.8628,25.6774
17.9149,25.8871
17.9670,26.2419
18.0190,26.3710
18.0711,27.0000
18.1232,27.3065
18.1753,27.5806
18.2273,27.8710
18.2794,28.0323
18.3315,28.4677
18.3836,28.7581
18.4357,29.2097
18.4877,29.4194
18.5398,29.6774
18.5919,29.9355
18.6440,30.1613
18.6960,30.4839
18.7481,30.8710
18.8002,31.0000
18.8523,31.0645
18.9044,31.6774
18.9564,31.9032
19.0085,32.0161
19.0606,32.1774
19.1127,32.9194
19.1647,33.0161
19.2168,33.1452
19.2689,33.4677
19.3210,33.6452
19.3731,33.7903
19.4251,33.7903
19.4772,33.9194
19.5293,34.0000
19.5814,34.4677
19.6335,35.0161
19.6855,35.2258
19.7376,35.2419
19.7897,35.0806
19.8418,35.3710
19.8938,35.8710
19.9459,36.0806
19.9980,36.0161
20.0501,35.7581
20.1022,35.9032
20.1542,36.2742
20.2063,36.2097
20.2584,36.4516
20.3105,36.9677
20.3625,37.0484
20.4146,37.3871
20.4667,38.0645
20.5188,38.0000
20.5709,38.4194
20.6229,39.0484
20.6750,39.7581
20.7271,40.0645
20.7792,40.0323
20.8312,41.0161
20.8833,41.5161
20.9354,41.2419
20.9875,41.5484
21.0396,42.2419
21.0916,42.3548
21.1437,42.6129
21.1958,43.1452
21.2479,43.7903
21.3000,44.8064
21.3520,45.2097
21.4041,45.0161
21.4562,45.6129
21.5083,46.5000
21.5603,46.5806
21.6124,47.6129
21.6645,48.2097
21.7166,48.6936
21.7687,49.1129
21.8207,49.1452
21.8728,49.7258
21.9249,50.2419
21.9770,50.3387
22.0290,51.0484
22.0811,51.3548
22.1332,51.5484
22.1853,51.7742
22.2374,52.3548
22.2894,52.3710
22.3415,53.0484
22.3936,53.2742
22.4457,53.2419
22.4977,53.6129
22.5498,54.2419
22.6019,54.4677
22.6540,54.7258
22.7061,54.5161
22.7581,54.7419
22.8102,54.9355
22.8623,54.7903
22.9144,55.1936
22.9665,55.2097
23.0185,54.9194
23.0706,54.6774
23.1227,54.7419
23.1748,54.9516
23.2268,55.1129
23.2789,55.0484
23.3310,55.1936
23.3831,55.3387
23.4352,55.2903
23.4872,55.0968
23.5393,55.1129
23.5914,55.0968
23.6435,55.5161
23.6955,55.7903
23.7476,55.8871
23.7997,56.1129
23.8518,56.6936
23.9039,56.7258
23.9559,56.9839
24.0080,56.8710
24.0601,57.4032
24.1122,57.9194
24.1642,58.1774
24.2163,58.7742
24.2684,59.3871
24.3205,59.6613
24.3726,59.8226
24.4246,60.1452
24.4767,60.5645
24.5288,61.7419
24.5809,61.8548
24.6330,62.3548
24.6850,62.2258
24.7371,62.6774
24.7892,62.6774
24.8413,62.7419
24.8933,62.7419
24.9454,63.0806
24.9975,63.2581
25.0496,63.0968
25.1017,63.0806
25.1537,63.2097
25.2058,63.3710
25.2579,63.3871
25.3100,63.4677
25.3620,63.1290
25.4141,63.4355
25.4662,63.4839
25.5183,63.7742
25.5704,63.4677
25.6224,63.4355
25.6745,63.5968
25.7266,63.5484
25.7787,63.6936
25.8307,63.7258
25.8828,64.0000
25.9349,64.0968
25.9870,64.4355
26.0391,64.9194
26.0911,64.8387
26.1432,64.7097
26.1953,64.8064
26.2474,64.8710
26.2995,65.2097
26.3515,65.2258
26.4036,65.5161
26.4557,64.9677
26.5078,65.8064
26.5598,66.1774
26.6119,66.6129
26.6640,66.8064
26.7161,67.1774
26.7682,67.6452
26.8202,67.3387
26.8723,67.7903
26.9244,68.5323
26.9765,68.6774
27.0285,69.1774
27.0806,69.3387
27.1327,69.4839
27.1848,69.9839
27.2369,69.7903
27.2889,70.1290
27.3410,69.9355
27.3931,70.1613
27.4452,70.1774
27.4972,70.1774
27.5493,70.5000
27.6014,70.5806
27.6535,70.4677
27.7056,71.0484
27.7576,70.9839
27.8097,70.6774
27.8618,70.7097
27.9139,70.4194
27.9660,70.8064
28.0180,70.8871
28.0701,71.3064
28.1222,71.3226
28.1743,71.0323
28.2263,71.3064
28.2784,71.0323
28.3305,71.1936
28.3826,71.5323
28.4347,71.9839
28.4867,72.2581
28.5388,72.0161
28.5909,72.4516
28.6430,72.6290
28.6950,72.8064
28.7471,72.5323
28.7992,72.8710
28.8513,72.8226
28.9034,72.4355
28.9554,72.2258
29.0075,72.2581
29.0596,72.6290
29.1117,72.8226
29.1637,72.8064
29.2158,73.2258
29.2679,73.2903
29.3200,73.4032
29.3721,73.5323
29.4241,73.7097
29.4762,73.7419
29.5283,73.9677
29.5804,73.7097
29.6325,73.6452
29.6845,73.7742
29.7366,74.4516
29.7887,74.5968
29.8408,74.4839
29.8928,74.4355
29.9449,74.5806
29.9970,74.6129
30.0491,74.7097
30.1012,74.7097
30.1532,74.7097
30.2053,74.5484
30.2574,74.3710
30.3095,74.3226
30.3615,74.6290
30.4136,74.4194
30.4657,74.3387
30.5178,74.4355
30.5699,74.7419
30.6219,74.6452
30.6740,74.0968
30.7261,74.4839
30.7782,74.7097
30.8302,74.4516
30.8823,74.6290
30.9344,74.9194
30.9865,74.8710
31.0386,75.0323
31.0906,75.1452
31.1427,74.9839
31.1948,75.3871
31.2469,75.3064
31.2990,75.5645
31.3510,75.5323
31.4031,75.1613
31.4552,74.9355
31.5073,75.1290
31.5593,74.9194
31.6114,74.6613
31.6635,75.0000
31.7156,75.1129
31.7677,75.4677
31.8197,75.1613
31.8718,75.5484
31.9239,75.9194
31.9760,76.4032
32.0280,76.4194
32.0801,76.5000
32.1322,77.3387
32.1843,77.5645
32.2364,77.7419
32.2884,77.8064
32.3405,77.9516
32.3926,78.5161
32.4447,78.4032
32.4967,78.9194
32.5488,78.6290
32.6009,78.3064
32.6530,78.5161
32.7051,78.1936
32.7571,78.3226
32.8092,78.2097
32.8613,78.4194
32.9134,78.3710
32.9655,78.8548
33.0175,78.5000
33.0696,78.2742
33.1217,78.4032
33.1738,78.5161
33.2258,79.2097
33.2779,79.3226
33.3300,79.4677
33.3821,78.7742
33.4342,78.0323
33.4862,78.2097
33.5383,77.5806
33.5904,77.3710
33.6425,76.5000
33.6945,76.3871
33.7466,76.0323
33.7987,76.2742
33.8508,76.2581
33.9029,76.1290
33.9549,76.5968
34.0070,76.4516
34.0591,76.4839
34.1112,76.5161
34.1632,75.7742
34.2153,75.7903
34.2674,75.8710
34.3195,76.1452
34.3716,76.2258
34.4236,76.0806
34.4757,76.0484
34.5278,76.5806
34.5799,76.5484
34.6320,76.3548
34.6840,76.5000
34.7361,76.9194
34.7882,76.7258
34.8403,76.9194
34.8923,76.8226
34.9444,76.7742
34.9965,77.2903
35.0486,77.6452
35.1007,77.9516
35.1527,78.2581
35.2048,78.1129
35.2569,77.8226
35.3090,77.5161
35.3610,77.0323
35.4131,77.2419
35.4652,77.0000
35.5173,76.6129
35.5694,76.0161
35.6214,76.1290
35.6735,76.3548
35.7256,76.6774
35.7777,76.1774
35.8298,75.9516
35.8818,75.5484
35.9339,74.9355
35.9860,74.9032
36.0381,75.0645
36.0901,74.5484
36.1422,74.0484
36.1943,73.5000
36.2464,73.3710
36.2985,73.5161
36.3505,73.2742
36.4026,72.6774
36.4547,72.6936
36.5068,73.0968
36.5588,72.4194
36.6109,72.4355
36.6630,72.4677
36.7151,72.4355
36.7672,72.1613
36.8192,72.3871
36.8713,72.5484
36.9234,72.8226
36.9755,72.4516
37.0275,71.9839
37.0796,71.7742
37.1317,72.0484
37.1838,71.8710
37.2359,71.5161
37.2879,71.5161
37.3400,71.6613
37.3921,71.5161
37.4442,71.8387
37.4963,71.3064
37.5483,71.5806
37.6004,71.5968
37.6525,71.6936
37.7046,71.0000
37.7566,71.3548
37.8087,71.5645
37.8608,71.6774
37.9129,71.0645
37.9650,71.2419
38.0170,70.8387
38.0691,70.9516
38.1212,71.0323
38.1733,70.8871
38.2253,70.5806
38.2774,70.4032
38.3295,70.5323
38.3816,70.4355
38.4337,70.2903
38.4857,70.3548
38.5378,69.8871
38.5899,69.5000
38.6420,69.4194
38.6940,69.3710
38.7461,69.1452
38.7982,68.9032
38.8503,68.7097
38.9024,68.5000
38.9544,68.4194
39.0065,68.1936
39.0586,68.8064
39.1107,68.3548
39.1628,68.0161
39.2148,68.0968
39.2669,67.7581
39.3190,67.5000
39.3711,67.5161
39.4231,67.3871
39.4752,67.0484
39.5273,66.8871
39.5794,66.9194
39.6315,66.7258
39.6835,66.4355
39.7356,66.3710
39.7877,65.9516
39.8398,66.5323
39.8918,66.4516
39.9439,65.9839
39.9960,65.4839
40.0481,65.5645
40.1002,65.1774
40.1522,65.2419
40.2043,65.0806
40.2564,64.9032
40.3085,64.9032
40.3605,64.8387
40.4126,64.5968
40.4647,64.3064
40.5168,64.4032
40.5689,64.4355
40.6209,64.3871
40.6730,64.2419
40.7251,64.1774
40.7772,63.9516
40.8293,63.7581
40.8813,63.8387
40.9334,63.2419
40.9855,63.0484
41.0376,63.4355
41.0896,63.3387
41.1417,63.2097
41.1938,62.7903
41.2459,62.8710
41.2980,62.7258
41.3500,62.0323
41.4021,62.2419
41.4542,62.1774
41.5063,61.7903
41.5583,61.7097
41.6104,61.0806
41.6625,61.2258
41.7146,61.3064
41.7667,60.8226
41.8187,60.9032
41.8708,60.5000
41.9229,60.2581
41.9750,60.0484
42.0270,59.5645
42.0791,59.5484
42.1312,59.5161
42.1833,59.2097
42.2354,58.8710
42.2874,58.3226
42.3395,57.8226
42.3916,57.6613
42.4437,57.7742
42.4958,57.6613
42.5478,57.3871
42.5999,57.3226
42.6520,56.5968
42.7041,56.6290
42.7561,56.3226
42.8082,55.7258
42.8603,55.3226
42.9124,55.4194
42.9645,55.3064
43.0165,55.2419
43.0686,54.8710
43.1207,54.4355
43.1728,54.4516
43.2248,54.2258
43.2769,53.8710
43.3290,53.2903
43.3811,53.1774
43.4332,52.7581
43.4852,52.6129
43.5373,52.2581
43.5894,52.0000
43.6415,51.6129
43.6935,51.3548
43.7456,51.2742
43.7977,51.0806
43.8498,50.2419
43.9019,50.1290
43.9539,50.2097
44.0060,50.2419
44.0581,49.9839
44.1102,49.6936
44.1623,49.7742
44.2143,49.5645
44.2664,49.1452
44.3185,48.9355
44.3706,49.0645
44.4226,48.6290
44.4747,48.2419
44.5268,47.8387
44.5789,47.9677
44.6310,47.0161
44.6830,46.7419
44.7351,46.5484
44.7872,45.8548
44.8393,45.9032
44.8913,45.5645
44.9434,45.0484
44.9955,45.3387
45.0476,45.0161
45.0997,44.6452
45.1517,44.6290
45.2038,44.1613
45.2559,44.0968
45.3080,43.2419
45.3600,42.2581
45.4121,42.1613
45.4642,41.7581
45.5163,41.9355
45.5684,41.5484
45.6204,41.0000
45.6725,40.5000
45.7246,40.0323
45.7767,39.7742
45.8288,39.2097
45.8808,38.9516
45.9329,38.7581
45.9850,38.4677
46.0371,37.6452
46.0891,37.2097
46.1412,36.9839
46.1933,36.3226
46.2454,36.0484
46.2975,35.7903
46.3495,34.8387
46.4016,34.7903
46.4537,34.2258
46.5058,33.7097
46.5578,33.5323
46.6099,33.4194
46.6620,33.1936
46.7141,32.8226
46.7662,32.3387
46.8182,31.7419
46.8703,31.5323
46.9224,31.3871
46.9745,31.0968
47.0265,31.1452
47.0786,31.0161
47.1307,30.9355
47.1828,30.5161
47.2349,30.1452
47.2869,30.0000
47.3390,30.0968
47.3911,30.1129
47.4432,30.0161
47.4953,29.9032
47.5473,29.7581
47.5994,29.4355
47.6515,29.0645
47.7036,29.0000
47.7556,28.9194
47.8077,28.7097
47.8598,28.6452
47.9119,28.3065
47.9640,27.9516
48.0160,27.7742
48.0681,27.5645
48.1202,27.3710
48.1723,27.4355
48.2243,27.1452
48.2764,26.9839
48.3285,26.7903
48.3806,26.7742
48.4327,26.6290
48.4847,26.4194
48.5368,26.0000
48.5889,25.8387
48.6410,25.5323
48.6930,25.5000
48.7451,25.2903
48.7972,25.0161
48.8493,24.8065
48.9014,24.5484
48.9534,24.4839
49.0055,24.0968
49.0576,23.8548
49.1097,23.4677
49.1618,23.2419
49.2138,23.0323
49.2659,23.0000
49.3180,23.0806
49.3701,22.7419
49.4221,22.5484
49.4742,22.3548
49.5263,22.1935
49.5784,21.9032
49.6305,21.8710
49.6825,21.8548
49.7346,21.7258
49.7867,21.5806
49.8388,21.3387
49.8908,21.2742
49.9429,21.1452
49.9950,20.9839
50.0471,20.9516
50.0992,20.8710
50.1512,20.8065
50.2033,20.6290
50.2554,20.5645
50.3075,20.4355
50.3595,20.3065
50.4116,20.2419
50.4637,20.1774
50.5158,20.0645
50.5679,19.9839
50.6199,19.8226
50.6720,19.7903
50.7241,19.6774
50.7762,19.7903
50.8283,19.6452
50.8803,19.6613
50.9324,19.4839
50.9845,19.4194
51.0366,19.3710
51.0886,19.2903
51.1407,19.3065
51.1928,19.1290
51.2449,19.0645
51.2970,19.0645
51.3490,19.0000
51.4011,18.8871
51.4532,18.7581
51.5053,18.7419
51.5573,18.6129
51.6094,18.5968
51.6615,18.4677
51.7136,18.5161
51.7657,18.4839
51.8177,18.4677
51.8698,18.4355
51.9219,18.3710
51.9740,18.3226
52.0260,18.2903
52.0781,18.2742
52.1302,18.2419
52.1823,18.2097
52.2344,18.1935
52.2864,18.1774
52.3385,18.1129
52.3906,18.1613
52.4427,18.1129
52.4948,18.0806
52.5468,18.0161
52.5989,17.9677
52.6510,18.0000
52.7031,18.0323
52.7551,17.9194
52.8072,17.9355
52.8593,17.9677
52.9114,17.8548
52.9635,17.8871
53.0155,17.9032
53.0676,17.8387
53.1197,17.8226
53.1718,17.8226
53.2238,17.7903
53.2759,17.6935
53.3280,17.7419
53.3801,17.7903
53.4322,17.8548
53.4842,17.7903
53.5363,17.8387
53.5884,17.8226
53.6405,17.9032
53.6925,17.8871
53.7446,17.8871
53.7967,17.9677
53.8488,17.9677
53.9009,18.0000
53.9529,18.0806
54.0050,18.0323
54.0571,18.0806
54.1092,18.0645
54.1613,18.1613
54.2133,18.1452
54.2654,18.1613
54.3175,18.1935
54.3696,18.1452
54.4216,18.1774
54.4737,18.2258
54.5258,18.2097
54.5779,18.1774
54.6300,18.1935
54.6820,18.2419
54.7341,18.2581
54.7862,18.2419
54.8383,18.3226
54.8903,18.3548
54.9424,18.4516
54.9945,18.5323
55.0466,18.5484
55.0987,18.6452
55.1507,18.6613
55.2028,18.6129
55.2549,18.7742
55.3070,18.6452
55.3590,18.6613
55.4111,18.6613
55.4632,18.6935
55.5153,18.6935
55.5674,18.6452
55.6194,18.6290
55.6715,18.5968
55.7236,18.5323
55.7757,18.6452
55.8278,18.7258
55.8798,18.7419
55.9319,18.6613
55.9840,18.8387
56.0361,18.8710
56.0881,18.8548
56.1402,18.9839
56.1923,18.9677
56.2444,19.0323
56.2965,19.0645
56.3485,18.9839
56.4006,19.0161
56.4527,19.1613
56.5048,19.1935
56.5568,19.1774
56.6089,19.1774
56.6610,19.1935
56.7131,19.2742
56.7652,19.2903
56.8172,19.3226
56.8693,19.3548
56.9214,19.4677
56.9735,19.4677
57.0255,19.5484
57.0776,19.5645
57.1297,19.6129
57.1818,19.6935
57.2339,19.6452
57.2859,19.6129
57.3380,19.7742
57.3901,19.8387
57.4422,19.9032
57.4943,19.9839
57.5463,20.1129
57.5984,20.1774
57.6505,20.2097
57.7026,20.2581
57.7546,20.3226
57.8067,20.2419
57.8588,20.0806
57.9109,20.1935
57.9630,20.2419
58.0150,20.1452
58.0671,20.1935
58.1192,20.2419
58.1713,20.1290
58.2233,20.2742
58.2754,20.1935
58.3275,20.1613
58.3796,20.1452
58.4317,20.2419
58.4837,20.2903
58.5358,20.2903
58.5879,20.3226
58.6400,20.2419
58.6920,20.3065
58.7441,20.2258
58.7962,20.2097
58.8483,20.0806
58.9004,20.1452
58.9524,20.0484
59.0045,20.0645
59.0566,20.1774
59.1087,20.0645
59.1608,20.0484
59.2128,20.1129
59.2649,20.0484
59.3170,20.1129
59.3691,20.1774
59.4211,20.0968
59.4732,20.0806
59.5253,19.9839
59.5774,20.0968
59.6295,20.0968
59.6815,20.1613
59.7336,20.0645
59.7857,20.2581
59.8378,20.1613
59.8898,20.2903
59.9419,20.3065
59.9940,20.4032
60.0461,20.4194
60.0982,20.4032
60.1502,20.5323
60.2023,20.5806
60.2544,20.5645
60.3065,20.5484
60.3585,20.5000
60.4106,20.5161
60.4627,20.4839
60.5148,20.5645
60.5669,20.6290
60.6189,20.7097
60.6710,20.6129
60.7231,20.7581
60.7752,20.6935
60.8273,20.8065
60.8793,20.6452
60.9314,20.6774
60.9835,20.6774
61.0356,20.6774
61.0876,20.6290
61.1397,20.5645
61.1918,20.5806
61.2439,20.5000
61.2960,20.5161
61.3480,20.4516
61.4001,20.4839
61.4522,20.4839
61.5043,20.4516
61.5563,20.3548
61.6084,20.3871
61.6605,20.3548
61.7126,20.2903
61.7647,20.2742
61.8167,20.1613
61.8688,20.0323
61.9209,20.0323
61.9730,19.8871
62.0250,19.8548
62.0771,19.8226
62.1292,19.8710
62.1813,19.8226
62.2334,19.9355
62.2854,20.0161
62.3375,19.9839
62.3896,19.8226
62.4417,19.8710
62.4938,19.8871
62.5458,19.8871
62.5979,19.8548
62.6500,19.8710
62.7021,19.8226
62.7541,19.9032
62.8062,19.7903
62.8583,19.7742
62.9104,19.7097
62.9625,19.8226
63.0145,19.8871
63.0666,19.9355
63.1187,19.9194
63.1708,20.0161
63.2228,19.9355
63.2749,19.9516
63.3270,19.9355
63.3791,19.9355
63.4312,19.8871
63.4832,19.9355
63.5353,19.9032
63.5874,19.9355
63.6395,19.8548
63.6915,19.8226
63.7436,19.8387
63.7957,19.7742
63.8478,19.7581
63.8999,19.7419
63.9519,19.7903
64.0040,19.7581
64.0561,19.6613
64.1082,19.6290
64.1602,19.5161
64.2123,19.4516
64.2644,19.4355
64.3165,19.4032
64.3686,19.3871
64.4206,19.3065
64.4727,19.2742
64.5248,19.2258
64.5769,19.2419
64.6290,19.2742
64.6810,19.1935
64.7331,19.2258
64.7852,19.1290
64.8373,19.1290
64.8893,19.0645
64.9414,19.1290
64.9935,19.0161
65.0456,18.8871
65.0977,18.8548
65.1497,18.8065
65.2018,18.7903
65.2539,18.7581
65.3060,18.7258
65.3580,18.7419
65.4101,18.8226
65.4622,18.7742
65.5143,18.7419
65.5664,18.7097
65.6184,18.6774
65.6705,18.7258
65.7226,18.6129
65.7747,18.6129
65.8268,18.6935
65.8788,18.5806
65.9309,18.5484
65.9830,18.5806
66.0351,18.5968
66.0871,18.6774
66.1392,18.5484
66.1913,18.6290
66.2434,18.6290
66.2955,18.5968
66.3475,18.5645
