Distance_(mm),Gray_Value
0.00000,17.2941
0.00520,17.3137
0.01041,17.2745
0.01561,17.3137
0.02081,17.3333
0.02602,17.3333
0.03122,17.3725
0.03642,17.4706
0.04163,17.5490
0.04683,17.4706
0.05203,17.4902
0.05723,17.4118
0.06244,17.5098
0.06764,17.4902
0.07284,17.5294
0.07805,17.4902
0.08325,17.5882
0.08845,17.5882
0.09366,17.5686
0.09886,17.6667
0.10406,17.7059
0.10927,17.7059
0.11447,17.6863
0.11967,17.8235
0.12488,17.7647
0.13008,17.7451
0.13528,17.8039
0.14048,17.7647
0.14569,17.8039
0.15089,17.7647
0.15609,17.7843
0.16130,17.8431
0.16650,17.7843
0.17170,17.8431
0.17691,17.8235
0.18211,17.8235
0.18731,17.7647
0.19252,17.7059
0.19772,17.7255
0.20292,17.7059
0.20812,17.6471
0.21333,17.6863
0.21853,17.6471
0.22373,17.6078
0.22894,17.5882
0.23414,17.5882
0.23934,17.5490
0.24455,17.4902
0.24975,17.4902
0.25495,17.4510
0.26016,17.5098
0.26536,17.4314
0.27056,17.4510
0.27577,17.4118
0.28097,17.4314
0.28617,17.3922
0.29138,17.2941
0.29658,17.2549
0.30178,17.3137
0.30698,17.3333
0.31219,17.3529
0.31739,17.3529
0.32259,17.4706
0.32780,17.4510
0.33300,17.4902
0.33820,17.4902
0.34341,17.4902
0.34861,17.5294
0.35381,17.6078
0.35902,17.7255
0.36422,17.7647
0.36942,17.8824
0.37462,17.9020
0.37983,18.0196
0.38503,18.0980
0.39023,18.2157
0.39544,18.3137
0.40064,18.4314
0.40584,18.5294
0.41105,18.7647
0.41625,18.9020
0.42145,19.0392
0.42666,19.1569
0.43186,19.3137
0.43706,19.3137
0.44227,19.6078
0.44747,19.7647
0.45267,19.9608
0.45788,20.2157
0.46308,20.3922
0.46828,20.4314
0.47348,20.4706
0.47869,20.6275
0.48389,20.7059
0.48909,20.9608
0.49430,20.9412
0.49950,21.0588
0.50470,21.2549
0.50991,21.4118
0.51511,21.4118
0.52031,21.6471
0.52552,21.5882
0.53072,21.6863
0.53592,21.6863
0.54112,21.7451
0.54633,21.8235
0.55153,21.8235
0.55673,21.8627
0.56194,21.9216
0.56714,21.8824
0.57234,21.6471
0.57755,21.6667
0.58275,21.6275
0.58795,21.5882
0.59316,21.6275
0.59836,21.6275
0.60356,21.5098
0.60877,21.4706
0.61397,21.5098
0.61917,21.2549
0.62437,21.1176
0.62958,20.8627
0.63478,20.7647
0.63998,20.6667
0.64519,20.4902
0.65039,20.3333
0.65559,20.2157
0.66080,20.0196
0.66600,19.8431
0.67120,19.6471
0.67641,19.4118
0.68161,19.3137
0.68681,18.9412
0.69202,18.8431
0.69722,18.7255
0.70242,18.6471
0.70762,18.3922
0.71283,18.2549
0.71803,18.2549
0.72323,18.1176
0.72844,17.9412
0.73364,17.8627
0.73884,17.7843
0.74405,17.6667
0.74925,17.6275
0.75445,17.6275
0.75966,17.5686
0.76486,17.6471
0.77006,17.6078
0.77527,17.6471
0.78047,17.7843
0.78567,17.7843
0.79088,17.8824
0.79608,18.0392
0.80128,18.1373
0.80648,18.1961
0.81169,18.3529
0.81689,18.4706
0.82209,18.6667
0.82730,18.8627
0.83250,18.9412
0.83770,19.0196
0.84291,19.2549
0.84811,19.5098
0.85331,19.7059
0.85852,19.9020
0.86372,20.1176
0.86892,20.2745
0.87413,20.4902
0.87933,20.7843
0.88453,20.8824
0.88973,21.1569
0.89494,21.4314
0.90014,21.6667
0.90534,21.9412
0.91055,22.1765
0.91575,22.3922
0.92095,22.5490
0.92616,22.9020
0.93136,22.9216
0.93656,23.2157
0.94177,23.4706
0.94697,23.6863
0.95217,23.6078
0.95737,23.8235
0.96258,23.8431
0.96778,23.9020
0.97298,23.9020
0.97819,24.0588
0.98339,24.0000
0.98859,23.9608
0.99380,23.9020
0.99900,24.0000
1.00420,23.9216
1.00941,23.8235
1.01461,23.9020
1.01981,23.7843
1.02502,23.5490
1.03022,23.4902
1.03542,23.3725
1.04062,23.0980
1.04583,22.8824
1.05103,22.7255
1.05623,22.6078
1.06144,22.3529
1.06664,22.1176
1.07184,22.0392
1.07705,21.7059
1.08225,21.5294
1.08745,21.2549
1.09266,21.1373
1.09786,20.9020
1.10306,20.5490
1.10827,20.2353
1.11347,19.9608
1.11867,19.6275
1.12388,19.3529
1.12908,19.0196
1.13428,18.8235
1.13948,18.7059
1.14469,18.4706
1.14989,18.3529
1.15509,18.2157
1.16030,17.9608
1.16550,17.9412
1.17070,17.8039
1.17591,17.6275
1.18111,17.5882
1.18631,17.6078
1.19152,17.4314
1.19672,17.4510
1.20192,17.3137
1.20712,17.2941
1.21233,17.3137
1.21753,17.2941
1.22273,17.2745
1.22794,17.2353
1.23314,17.1961
1.23834,17.2745
1.24355,17.2941
1.24875,17.2941
1.25395,17.3529
1.25916,17.4118
1.26436,17.3922
1.26956,17.5686
1.27477,17.5490
1.27997,17.6078
1.28517,17.7059
1.29037,17.8039
1.29558,17.8039
1.30078,17.9412
1.30598,17.9216
1.31119,18.1373
1.31639,18.2353
1.32159,18.3922
1.32680,18.4314
1.33200,18.5882
1.33720,18.5294
1.34241,18.7059
1.34761,18.8431
1.35281,18.9608
1.35802,19.0000
1.36322,19.0980
1.36842,19.1373
1.37363,19.2941
1.37883,19.2941
1.38403,19.3529
1.38923,19.3529
1.39444,19.3529
1.39964,19.2941
1.40484,19.2745
1.41005,19.3137
1.41525,19.3922
1.42045,19.2157
1.42566,19.1373
1.43086,19.2157
1.43606,19.1176
1.44127,19.0392
1.44647,19.1569
1.45167,19.0392
1.45687,18.9412
1.46208,18.9804
1.46728,18.9412
1.47248,18.9608
1.47769,18.8824
1.48289,18.8627
1.48809,18.7843
1.49330,18.6471
1.49850,18.5686
1.50370,18.5294
1.50891,18.4510
1.51411,18.4118
1.51931,18.3725
1.52452,18.3529
1.52972,18.3922
1.53492,18.2745
1.54013,18.2157
1.54533,18.0784
1.55053,18.0588
1.55573,18.0784
1.56094,18.0392
1.56614,18.0196
1.57134,18.0196
1.57655,18.0588
1.58175,18.0196
1.58695,17.9608
1.59216,18.0000
1.59736,17.8627
1.60256,17.9020
1.60777,17.8431
1.61297,17.8627
1.61817,17.8235
1.62338,17.7843
1.62858,17.8824
1.63378,17.8627
1.63898,17.7843
1.64419,17.6667
1.64939,17.7647
1.65459,17.7451
1.65980,17.7843
1.66500,17.7843
1.67020,17.7647
1.67541,17.8824
1.68061,17.9020
1.68581,17.8039
1.69102,17.8039
1.69622,17.8235
1.70142,17.8824
1.70662,17.9804
1.71183,17.9804
1.71703,18.0000
1.72223,18.0784
1.72744,18.0980
1.73264,18.2745
1.73784,18.3137
1.74305,18.3922
1.74825,18.5490
1.75345,18.7647
1.75866,18.8235
1.76386,19.0392
1.76906,19.1961
1.77427,19.4118
1.77947,19.7059
1.78467,20.0392
1.78988,20.3725
1.79508,20.4902
1.80028,20.7255
1.80548,20.8824
1.81069,21.1373
1.81589,21.6078
1.82109,21.7647
1.82630,22.0196
1.83150,22.4118
1.83670,22.6863
1.84191,22.9020
1.84711,23.1569
1.85231,23.4314
1.85752,23.6078
1.86272,23.8039
1.86792,24.0196
1.87312,24.1373
1.87833,24.4706
1.88353,24.7451
1.88873,24.9412
1.89394,25.0000
1.89914,25.1765
1.90434,25.5098
1.90955,25.6275
1.91475,25.9804
1.91995,26.0392
1.92516,26.4118
1.93036,26.5098
1.93556,26.7451
1.94077,26.9216
1.94597,27.0784
1.95117,27.1373
1.95638,27.3333
1.96158,27.2157
1.96678,27.3137
1.97198,27.0196
1.97719,26.7451
1.98239,26.4902
1.98759,26.2549
1.99280,25.9412
1.99800,25.6863
2.00320,25.3529
2.00841,25.0588
2.01361,24.8235
2.01881,24.3137
2.02402,23.9804
2.02922,23.4706
2.03442,23.0588
2.03962,22.8039
2.04483,22.3333
2.05003,22.1961
2.05523,21.8431
2.06044,21.6078
2.06564,21.2353
2.07084,20.9804
2.07605,20.7255
2.08125,20.6078
2.08645,20.3725
2.09166,20.2353
2.09686,20.1373
2.10206,20.1373
2.10727,19.9020
2.11247,20.0980
2.11767,20.2745
2.12287,20.4510
2.12808,20.7647
2.13328,20.9804
2.13848,21.3333
2.14369,21.8039
2.14889,22.3137
2.15409,23.0000
2.15930,23.8039
2.16450,24.5294
2.16970,25.2549
2.17491,26.1176
2.18011,27.0588
2.18531,28.0980
2.19052,29.5490
2.19572,30.7647
2.20092,32.2157
2.20613,33.4510
2.21133,35.1176
2.21653,36.5882
2.22173,38.1176
2.22694,40.1176
2.23214,41.8431
2.23734,43.8824
2.24255,45.6863
2.24775,47.7647
2.25295,49.1176
2.25816,50.8824
2.26336,52.3137
2.26856,54.4314
2.27377,56.3922
2.27897,57.9804
2.28417,59.5294
2.28938,60.6078
2.29458,62.3333
2.29978,63.6078
2.30498,64.6471
2.31019,66.2745
2.31539,67.6274
2.32059,68.5882
2.32580,69.6471
2.33100,70.5686
2.33620,72.3922
2.34141,73.4706
2.34661,74.4510
2.35181,74.7255
2.35702,74.7647
2.36222,74.2157
2.36742,73.7451
2.37263,73.8627
2.37783,74.2549
2.38303,73.5098
2.38823,72.1765
2.39344,71.5490
2.39864,71.4902
2.40384,70.6274
2.40905,68.2549
2.41425,67.0784
2.41945,65.7255
2.42466,64.0588
2.42986,62.6667
2.43506,60.5882
2.44027,58.4118
2.44547,56.8235
2.45067,54.4510
2.45587,52.6275
2.46108,50.5882
2.46628,48.6863
2.47148,46.0588
2.47669,44.0784
2.48189,42.1765
2.48709,40.4510
2.49230,38.6078
2.49750,36.9020
2.50270,35.5490
2.50791,34.1373
2.51311,32.8824
2.51831,31.8235
2.52352,30.9020
2.52872,30.0196
2.53392,29.3922
2.53912,28.6863
2.54433,28.3922
2.54953,27.9804
2.55473,28.0588
2.55994,28.2941
2.56514,28.7255
2.57034,29.1373
2.57555,29.9804
2.58075,30.7255
2.58595,31.9020
2.59116,33.0784
2.59636,34.7255
2.60156,36.8039
2.60677,38.8431
2.61197,41.2941
2.61717,43.9608
2.62238,46.3922
2.62758,49.1961
2.63278,52.6863
2.63798,55.0000
2.64319,58.3922
2.64839,62.2941
2.65359,67.0000
2.65880,70.4902
2.66400,72.7059
2.66920,75.5098
2.67441,77.8431
2.67961,79.6078
2.68481,82.0392
2.69002,83.6471
2.69522,85.0784
2.70042,86.8039
2.70563,88.3529
2.71083,89.2941
2.71603,90.5686
2.72123,91.1569
2.72644,92.4510
2.73164,93.1961
2.73684,94.0392
2.74205,95.0588
2.74725,95.7843
2.75245,95.9412
2.75766,96.4510
2.76286,97.3333
2.76806,97.7647
2.77327,98.0392
2.77847,98.5686
2.78367,99.1373
2.78888,99.5294
2.79408,99.1765
2.79928,99.4118
2.80448,99.8039
2.80969,99.2941
2.81489,99.4510
2.82009,99.8039
2.82530,100.1765
2.83050,99.4902
2.83570,99.1765
2.84091,99.1765
2.84611,98.3726
2.85131,98.0392
2.85652,97.4314
2.86172,97.1765
2.86692,96.3529
2.87212,95.2941
2.87733,93.6471
2.88253,92.8431
2.88773,91.4510
2.89294,89.4902
2.89814,86.9804
2.90334,85.1765
2.90855,81.2745
2.91375,77.7059
2.91895,72.9804
2.92416,69.4118
2.92936,65.9412
2.93456,62.7647
2.93977,59.0392
2.94497,56.2353
2.95017,52.3922
2.95537,49.2157
2.96058,46.0588
2.96578,43.6275
2.97098,41.1569
2.97619,39.0392
2.98139,36.5882
2.98659,34.9412
2.99180,33.1569
2.99700,31.9804
3.00220,31.2157
3.00741,31.1765
3.01261,31.1373
3.01781,32.0000
3.02302,33.1961
3.02822,34.9020
3.03342,37.0196
3.03863,39.3922
3.04383,42.2745
3.04903,46.1176
3.05423,50.2941
3.05944,54.4510
3.06464,58.6667
3.06984,63.2549
3.07505,68.3726
3.08025,72.3137
3.08545,76.4902
3.09066,77.9020
3.09586,80.6863
3.10106,81.8039
3.10627,83.9412
3.11147,85.0588
3.11667,85.0392
3.12188,87.2157
3.12708,87.3333
3.13228,88.3922
3.13748,89.8627
3.14269,91.1373
3.14789,90.4314
3.15309,91.7059
3.15830,93.1961
3.16350,93.5098
3.16870,92.9608
3.17391,93.0000
3.17911,94.6078
3.18431,96.3137
3.18952,97.4314
3.19472,98.8235
3.19992,100.2745
3.20513,102.0196
3.21033,102.5098
3.21553,103.4118
3.22073,104.2941
3.22594,105.1176
3.23114,106.2745
3.23634,106.9412
3.24155,107.9216
3.24675,108.2549
3.25195,108.8431
3.25716,108.6863
3.26236,107.3137
3.26756,106.1176
3.27277,106.6667
3.27797,108.9804
3.28317,109.6863
3.28837,110.4510
3.29358,109.2941
3.29878,107.5294
3.30398,105.7059
3.30919,105.1569
3.31439,104.5686
3.31959,102.6078
3.32480,100.4510
3.33000,99.7451
3.33520,97.3333
3.34041,94.3922
3.34561,92.6471
3.35081,91.0784
3.35602,85.7059
3.36122,83.5686
3.36642,79.5882
3.37162,74.7451
3.37683,69.7255
3.38203,64.9020
3.38723,61.4118
3.39244,56.8039
3.39764,53.4706
3.40284,49.4902
3.40805,46.3922
3.41325,43.0784
3.41845,40.6275
3.42366,38.4314
3.42886,36.0784
3.43406,34.0784
3.43927,32.4118
3.44447,31.3725
3.44967,30.0784
3.45487,28.9020
3.46008,28.2941
3.46528,28.1569
3.47048,27.9216
3.47569,28.0196
3.48089,28.4118
3.48609,29.0980
3.49130,30.1765
3.49650,31.4706
3.50170,32.9804
3.50691,35.1569
3.51211,37.7059
3.51731,40.6471
3.52252,43.7451
3.52772,46.3529
3.53292,49.9020
3.53813,53.7451
3.54333,57.8824
3.54853,62.3922
3.55373,67.5294
3.55894,71.8627
3.56414,75.5686
3.56934,78.5098
3.57455,81.2745
3.57975,83.3726
3.58495,85.4314
3.59016,87.1176
3.59536,88.7647
3.60056,89.8824
3.60577,90.9804
3.61097,92.1176
3.61617,92.8431
3.62138,93.2745
3.62658,94.1176
3.63178,94.7647
3.63698,95.0000
3.64219,95.9412
3.64739,96.2157
3.65259,96.7059
3.65780,96.8627
3.66300,97.2549
3.66820,97.4314
3.67341,97.8431
3.67861,97.7255
3.68381,97.8824
3.68902,98.3922
3.69422,98.6863
3.69942,98.4118
3.70462,98.5294
3.70983,98.7647
3.71503,98.8627
3.72023,98.4510
3.72544,97.9020
3.73064,97.3922
3.73584,97.2941
3.74105,96.5882
3.74625,95.9020
3.75145,95.0588
3.75666,94.0196
3.76186,92.6274
3.76706,91.1569
3.77227,89.6078
3.77747,88.2353
3.78267,86.3726
3.78787,84.3922
3.79308,81.2353
3.79828,77.7843
3.80348,74.0392
3.80869,70.6078
3.81389,66.2157
3.81909,62.3725
3.82430,58.2353
3.82950,54.5294
3.83470,51.4706
3.83991,48.2745
3.84511,45.3922
3.85031,42.5686
3.85552,40.1765
3.86072,37.6667
3.86592,35.5686
3.87112,33.8235
3.87633,32.3725
3.88153,30.6275
3.88673,29.2549
3.89194,28.2157
3.89714,27.3137
3.90234,26.7647
3.90755,25.9216
3.91275,25.8431
3.91795,25.6863
3.92316,25.8431
3.92836,26.0196
3.93356,26.6078
3.93877,27.2353
3.94397,28.0980
3.94917,29.0000
3.95438,30.0784
3.95958,31.1176
3.96478,32.2353
3.96998,33.4510
3.97519,35.3922
3.98039,36.7843
3.98559,38.5686
3.99080,40.7647
3.99600,42.7059
4.00120,44.5294
4.00641,46.9412
4.01161,48.8431
4.01681,50.8431
4.02202,52.6667
4.02722,54.5882
4.03242,56.5882
4.03762,58.8235
4.04283,60.8627
4.04803,63.2549
4.05323,65.0196
4.05844,65.7451
4.06364,67.0196
4.06884,68.8235
4.07405,70.0784
4.07925,71.6863
4.08445,71.6667
4.08966,72.7255
4.09486,73.0784
4.10006,73.8627
4.10527,74.3137
4.11047,73.8824
4.11567,74.5098
4.12087,74.2941
4.12608,73.6274
4.13128,73.5490
4.13648,73.1765
4.14169,73.0392
4.14689,72.2941
4.15209,71.3137
4.15730,70.5882
4.16250,69.7059
4.16770,67.9020
4.17291,67.0784
4.17811,65.7451
4.18331,64.5294
4.18852,63.0980
4.19372,61.7647
4.19892,60.4902
4.20412,59.5686
4.20933,57.1176
4.21453,54.9216
4.21973,52.6078
4.22494,50.8431
4.23014,49.2941
4.23534,47.9216
4.24055,45.8039
4.24575,43.8431
4.25095,42.0588
4.25616,40.2941
4.26136,38.7451
4.26656,37.2941
4.27177,35.3333
4.27697,33.6078
4.28217,32.1373
4.28737,30.9608
4.29258,29.9804
4.29778,28.3137
4.30298,27.4314
4.30819,26.4118
4.31339,25.2941
4.31859,24.4118
4.32380,23.4510
4.32900,22.7451
4.33420,22.0784
4.33941,21.3922
4.34461,21.0000
4.34981,20.6471
4.35502,20.2941
4.36022,19.9804
4.36542,19.8235
4.37063,19.7059
4.37583,19.7059
4.38103,19.7451
4.38623,19.8431
4.39144,20.0588
4.39664,20.3137
4.40184,20.6275
4.40705,20.8627
4.41225,21.3333
4.41745,21.5490
4.42266,22.1176
4.42786,22.4902
4.43306,22.9608
4.43827,23.2353
4.44347,23.6863
4.44867,24.2745
4.45388,24.7059
4.45908,25.1373
4.46428,25.5098
4.46948,26.1176
4.47469,26.5686
4.47989,26.8824
4.48509,27.3529
4.49030,27.9412
4.49550,28.0784
4.50070,28.5882
4.50591,28.7843
4.51111,29.0588
4.51631,29.1961
4.52152,29.5686
4.52672,29.6667
4.53192,30.0000
4.53713,30.0784
4.54233,30.3333
4.54753,30.4706
4.55273,30.5098
4.55794,30.5490
4.56314,30.1569
4.56834,30.4706
4.57355,30.5686
4.57875,30.4118
4.58395,29.9608
4.58916,29.9020
4.59436,29.7255
4.59956,29.6078
4.60477,29.3333
4.60997,29.0588
4.61517,28.8235
4.62038,28.5294
4.62558,27.8235
4.63078,27.6863
4.63598,27.0980
4.64119,26.8235
4.64639,26.5098
4.65159,26.0000
4.65680,25.4706
4.66200,25.3137
4.66720,24.8039
4.67241,24.4314
4.67761,23.8235
4.68281,23.4118
4.68802,22.9216
4.69322,22.6863
4.69842,22.2549
4.70363,21.8627
4.70883,21.4314
4.71403,21.0784
4.71923,20.7059
4.72444,20.3922
4.72964,20.1569
4.73484,19.9216
4.74005,19.5686
4.74525,19.3725
4.75045,19.0980
4.75566,18.9020
4.76086,18.5882
4.76606,18.4314
4.77127,18.3137
4.77647,18.0784
4.78167,17.9412
4.78687,17.8431
4.79208,17.7647
4.79728,17.7059
4.80248,17.5098
4.80769,17.5490
4.81289,17.4314
4.81809,17.4902
4.82330,17.3137
4.82850,17.3137
4.83370,17.2941
4.83891,17.2353
4.84411,17.2745
4.84931,17.2549
4.85452,17.2353
4.85972,17.3137
4.86492,17.3333
4.87012,17.4314
4.87533,17.3922
4.88053,17.4706
4.88573,17.5686
4.89094,17.7059
4.89614,17.7255
4.90134,17.9412
4.90655,18.0000
4.91175,18.1176
4.91695,18.2941
4.92216,18.4314
4.92736,18.6667
4.93256,18.7059
4.93777,18.8235
4.94297,19.0196
4.94817,19.0588
4.95337,19.2941
4.95858,19.3725
4.96378,19.5294
4.96898,19.7059
4.97419,19.9804
4.97939,20.0196
4.98459,20.1569
4.98980,20.2941
4.99500,20.4118
5.00020,20.4118
5.00541,20.5490
5.01061,20.6275
5.01581,20.6863
5.02102,20.6471
5.02622,20.6275
5.03142,20.7255
5.03662,20.8431
5.04183,20.9216
5.04703,20.8431
5.05223,20.9020
5.05744,20.8627
5.06264,20.9216
5.06784,20.8431
5.07305,20.6667
5.07825,20.8824
5.08345,20.6471
5.08866,20.6471
5.09386,20.5294
5.09906,20.4510
5.10427,20.5098
5.10947,20.4706
5.11467,20.2549
5.11987,20.3725
5.12508,20.1569
5.13028,20.0980
5.13548,20.0196
5.14069,19.9804
5.14589,19.8431
5.15109,19.7059
5.15630,19.5686
5.16150,19.5098
5.16670,19.2941
5.17191,19.4118
5.17711,19.0588
5.18231,19.0784
5.18752,18.8627
5.19272,18.7451
5.19792,18.5882
5.20312,18.4118
5.20833,18.3922
5.21353,18.1373
5.21873,18.0196
5.22394,17.8039
5.22914,17.7451
5.23434,17.5882
5.23955,17.5490
5.24475,17.4706
5.24995,17.4510
5.25516,17.5686
5.26036,17.4118
5.26556,17.5686
5.27077,17.5098
5.27597,17.6471
5.28117,17.7647
5.28638,17.7843
5.29158,17.9216
5.29678,18.1765
5.30198,18.3137
5.30719,18.4118
5.31239,18.4706
5.31759,18.6667
5.32280,18.8431
5.32800,19.1373
5.33320,19.1961
5.33841,19.4902
5.34361,19.6078
5.34881,19.8431
5.35402,20.0000
5.35922,20.1569
5.36442,20.4314
5.36963,20.4706
5.37483,20.7843
5.38003,20.9412
5.38523,21.1373
5.39044,21.3333
5.39564,21.5098
5.40084,21.6078
5.40605,21.9608
5.41125,22.0392
5.41645,22.1765
5.42166,22.3725
5.42686,22.4314
5.43206,22.6863
5.43727,22.8431
5.44247,23.0588
5.44767,23.1176
5.45288,23.3922
5.45808,23.3529
5.46328,23.7059
5.46848,24.0000
5.47369,24.2353
5.47889,24.2157
5.48409,24.2941
5.48930,24.3137
5.49450,24.3333
5.49970,24.3137
5.50491,24.3725
5.51011,24.4118
5.51531,24.3725
5.52052,24.3137
5.52572,24.1765
5.53092,23.9020
5.53613,23.8627
5.54133,23.8431
5.54653,23.6667
5.55173,23.5098
5.55694,23.2157
5.56214,22.9804
5.56734,22.7647
5.57255,22.6078
5.57775,22.1569
5.58295,21.8627
5.58816,21.6275
5.59336,21.4706
5.59856,21.1569
5.60377,20.8627
5.60897,20.6667
5.61417,20.4706
5.61938,20.2549
5.62458,19.9412
5.62978,19.7059
5.63498,19.5490
5.64019,19.2941
5.64539,19.0392
5.65059,18.7843
5.65580,18.5882
5.66100,18.3725
5.66620,18.1961
5.67141,18.1373
5.67661,17.9804
5.68181,18.0196
5.68702,17.8235
5.69222,17.7255
5.69742,17.6275
5.70262,17.5882
5.70783,17.5294
5.71303,17.4314
5.71823,17.4314
5.72344,17.4706
5.72864,17.4510
5.73384,17.4902
5.73905,17.5098
5.74425,17.6078
5.74945,17.6275
5.75466,17.7255
5.75986,17.7843
5.76506,17.9608
5.77027,18.0588
5.77547,18.2353
5.78067,18.4706
5.78587,18.6863
5.79108,18.8627
5.79628,19.0980
5.80148,19.4118
5.80669,19.6078
5.81189,19.7451
5.81709,19.9216
5.82230,20.1765
5.82750,20.3529
5.83270,20.6471
5.83791,20.9216
5.84311,21.0000
5.84831,21.1765
5.85352,21.3333
5.85872,21.6275
5.86392,21.9020
5.86912,22.0000
5.87433,22.1765
5.87953,22.1961
5.88473,22.3725
5.88994,22.3529
5.89514,22.5294
5.90034,22.5882
5.90555,22.4902
5.91075,22.5098
5.91595,22.5098
5.92116,22.4510
5.92636,22.3922
5.93156,22.4314
5.93677,22.2549
5.94197,22.3137
5.94717,22.1373
5.95237,22.0196
5.95758,21.9020
5.96278,21.8039
5.96798,21.8039
5.97319,21.6471
5.97839,21.5294
5.98359,21.3922
5.98880,21.1961
5.99400,21.1569
5.99920,21.0588
6.00441,20.8627
6.00961,20.7647
6.01481,20.5882
6.02002,20.2353
6.02522,20.2157
6.03042,20.0000
6.03562,19.8824
6.04083,19.6275
6.04603,19.5098
6.05123,19.3137
6.05644,19.2157
6.06164,19.0980
6.06684,18.9412
6.07205,18.8431
6.07725,18.6078
6.08245,18.4706
6.08766,18.2941
6.09286,18.2353
6.09806,18.0392
6.10327,17.9412
6.10847,17.9020
6.11367,17.8431
6.11888,17.7647
6.12408,17.5686
6.12928,17.5490
6.13448,17.4706
6.13969,17.4314
6.14489,17.4902
6.15009,17.4510
6.15530,17.3922
6.16050,17.3529
6.16570,17.4118
6.17091,17.3137
6.17611,17.3725
6.18131,17.3333
6.18652,17.3333
6.19172,17.3137
6.19692,17.3725
6.20213,17.3725
6.20733,17.4510
6.21253,17.4510
6.21773,17.4510
6.22294,17.4902
6.22814,17.4706
6.23334,17.4706
6.23855,17.5490
6.24375,17.6471
6.24895,17.5882
6.25416,17.7451
6.25936,17.6667
6.26456,17.7255
6.26977,17.7451
6.27497,17.8039
6.28017,17.7843
6.28538,17.8431
6.29058,17.8235
6.29578,17.9216
6.30098,17.9608
6.30619,18.0784
6.31139,18.0588
6.31659,18.1176
6.32180,18.1176
6.32700,18.1765
6.33220,18.1765
6.33741,18.0980
6.34261,18.1373
6.34781,18.0784
6.35302,18.1961
6.35822,18.1765
6.36342,18.2353
6.36863,18.2353
6.37383,18.2549
6.37903,18.2353
6.38423,18.1765
6.38944,18.1961
6.39464,18.2745
6.39984,18.2745
6.40505,18.2745
6.41025,18.3137
6.41545,18.2549
6.42066,18.2745
6.42586,18.1961
6.43106,18.1961
6.43627,18.2353
6.44147,18.2353
6.44667,18.1176
6.45188,18.1176
6.45708,18.0588
6.46228,18.1176
6.46748,18.0392
6.47269,17.9804
6.47789,18.0588
6.48309,17.9020
6.48830,18.0000
6.49350,17.8627
6.49870,17.7255
6.50391,17.8235
6.50911,17.6667
6.51431,17.7647
6.51952,17.7059
6.52472,17.6471
6.52992,17.5882
6.53512,17.5098
6.54033,17.4902
6.54553,17.5294
6.55073,17.5098
6.55594,17.4510
6.56114,17.3922
6.56634,17.4118
6.57155,17.3333
6.57675,17.2157
6.58195,17.2353
6.58716,17.2157
6.59236,17.2157
6.59756,17.1569
6.60277,17.1373
6.60797,17.1373
6.61317,17.0784
6.61837,17.1373
6.62358,17.0392
