Distance_(mm),Gray_Value
0.0000,21.2477
0.0521,21.1376
0.1042,21.1468
0.1562,21.1560
0.2083,21.1927
0.2604,21.2844
0.3125,21.3670
0.3645,21.3119
0.4166,21.3394
0.4687,21.4037
0.5208,21.3303
0.5729,21.2018
0.6249,21.1651
0.6770,21.2110
0.7291,21.2569
0.7812,21.0459
0.8332,21.1284
0.8853,21.0642
0.9374,20.9908
0.9895,20.9358
1.0416,20.9450
1.0936,20.9541
1.1457,21.1651
1.1978,21.1376
1.2499,21.0734
1.3020,21.0917
1.3540,21.0367
1.4061,20.9817
1.4582,20.9633
1.5103,20.8899
1.5623,20.8807
1.6144,20.8257
1.6665,20.7431
1.7186,20.6972
1.7707,20.7890
1.8227,20.8257
1.8748,20.8440
1.9269,20.7615
1.9790,20.8349
2.0310,20.7706
2.0831,20.6972
2.1352,20.6972
2.1873,20.5963
2.2394,20.5963
2.2914,20.5780
2.3435,20.6147
2.3956,20.5963
2.4477,20.5780
2.4997,20.5780
2.5518,20.5505
2.6039,20.6147
2.6560,20.5963
2.7081,20.6514
2.7601,20.4495
2.8122,20.3670
2.8643,20.4128
2.9164,20.3945
2.9685,20.2385
3.0205,20.1743
3.0726,20.1009
3.1247,20.0183
3.1768,20.0367
3.2288,20.0000
3.2809,20.0000
3.3330,20.0642
3.3851,19.9725
3.4372,20.0092
3.4892,20.0459
3.5413,20.0734
3.5934,20.0734
3.6455,20.0000
3.6975,19.9266
3.7496,19.8624
3.8017,19.6881
3.8538,19.5963
3.9059,19.5413
3.9579,19.4679
4.0100,19.4587
4.0621,19.5229
4.1142,19.6239
4.1663,19.6606
4.2183,19.7339
4.2704,19.5963
4.3225,19.5413
4.3746,19.4587
4.4266,19.4587
4.4787,19.4495
4.5308,19.3303
4.5829,19.2477
4.6350,19.1743
4.6870,19.2661
4.7391,19.2294
4.7912,19.1927
4.8433,19.1193
4.8953,18.9541
4.9474,18.9817
4.9995,18.9358
5.0516,18.9633
5.1037,18.9358
5.1557,19.0183
5.2078,18.9725
5.2599,18.9358
5.3120,18.9174
5.3640,18.9174
5.4161,18.8073
5.4682,18.6972
5.5203,18.5321
5.5724,18.5046
5.6244,18.5321
5.6765,18.4679
5.7286,18.4587
5.7807,18.5046
5.8327,18.4587
5.8848,18.4128
5.9369,18.2844
5.9890,18.2385
6.0411,18.2936
6.0931,18.2477
6.1452,18.2477
6.1973,18.2569
6.2494,18.1927
6.3015,18.2202
6.3535,18.1376
6.4056,18.1101
6.4577,18.0826
6.5098,18.0367
6.5618,18.0550
6.6139,18.0000
6.6660,17.9817
6.7181,17.9908
6.7702,18.0459
6.8222,17.9725
6.8743,18.0000
6.9264,18.0000
6.9785,17.9633
7.0305,17.9358
7.0826,17.8899
7.1347,17.8991
7.1868,17.8624
7.2389,17.8899
7.2909,17.8165
7.3430,17.8257
7.3951,17.8257
7.4472,17.7890
7.4992,17.8807
7.5513,17.8991
7.6034,17.9450
7.6555,17.9633
7.7076,17.9450
7.7596,18.0183
7.8117,18.0183
7.8638,18.0642
7.9159,18.0917
7.9680,18.1193
8.0200,18.1927
8.0721,18.1284
8.1242,18.1927
8.1763,18.0642
8.2283,18.1284
8.2804,18.2844
8.3325,18.2110
8.3846,18.2202
8.4367,18.3670
8.4887,18.3486
8.5408,18.3211
8.5929,18.4312
8.6450,18.6330
8.6970,18.5229
8.7491,18.4771
8.8012,18.8716
8.8533,19.0642
8.9054,19.0734
8.9574,18.9266
9.0095,18.9083
9.0616,19.0183
9.1137,19.2569
9.1657,19.2202
9.2178,19.2385
9.2699,19.2661
9.3220,19.3670
9.3741,19.4679
9.4261,19.5596
9.4782,19.7156
9.5303,19.7156
9.5824,19.7339
9.6345,19.6514
9.6865,19.6514
9.7386,19.8349
9.7907,20.0642
9.8428,20.2936
9.8948,20.4404
9.9469,20.6697
9.9990,20.8716
10.0511,21.0642
10.1032,21.3486
10.1552,21.5688
10.2073,21.2569
10.2594,21.2752
10.3115,21.8073
10.3635,22.1284
10.4156,21.9541
10.4677,22.2110
10.5198,22.7523
10.5719,22.9266
10.6239,22.8440
10.6760,23.2661
10.7281,23.2844
10.7802,23.4495
10.8322,23.4495
10.8843,23.8716
10.9364,23.9266
10.9885,24.5963
11.0406,24.7156
11.0926,25.0734
11.1447,25.3028
11.1968,25.5413
11.2489,25.6697
11.3010,25.9358
11.3530,25.9817
11.4051,26.2110
11.4572,26.2844
11.5093,26.3211
11.5613,26.4587
11.6134,26.9725
11.6655,27.0917
11.7176,27.2936
11.7697,27.6789
11.8217,27.9450
11.8738,28.4128
11.9259,28.7248
11.9780,28.9083
12.0300,29.0092
12.0821,29.2661
12.1342,29.6330
12.1863,29.8807
12.2384,30.2385
12.2904,30.6606
12.3425,31.1927
12.3946,31.6330
12.4467,31.9633
12.4987,32.6055
12.5508,32.9817
12.6029,33.5963
12.6550,33.9266
12.7071,34.5046
12.7591,34.8899
12.8112,35.1560
12.8633,35.5505
12.9154,35.8716
12.9675,36.0275
13.0195,36.3486
13.0716,36.5413
13.1237,36.7706
13.1758,37.2752
13.2278,37.7064
13.2799,38.2385
13.3320,38.5780
13.3841,38.6697
13.4362,38.8716
13.4882,39.3945
13.5403,40.0000
13.5924,39.9817
13.6445,40.2294
13.6965,40.4220
13.7486,40.3303
13.8007,40.7431
13.8528,41.0000
13.9049,41.3028
13.9569,41.5229
14.0090,41.7064
14.0611,42.1651
14.1132,42.6881
14.1652,43.1835
14.2173,43.2294
14.2694,43.5321
14.3215,43.6605
14.3736,44.0917
14.4256,44.3486
14.4777,44.1835
14.5298,44.3395
14.5819,44.6789
14.6340,44.7339
14.6860,45.1101
14.7381,45.2385
14.7902,45.5413
14.8423,45.5688
14.8943,45.6789
14.9464,45.6881
14.9985,45.9266
15.0506,46.2569
15.1027,46.6697
15.1547,46.7890
15.2068,47.0459
15.2589,47.0092
15.3110,47.1101
15.3630,47.4679
15.4151,48.0826
15.4672,48.2294
15.5193,48.3761
15.5714,48.6972
15.6234,48.9266
15.6755,49.0183
15.7276,49.3395
15.7797,49.4862
15.8317,49.7248
15.8838,50.0826
15.9359,50.3119
15.9880,50.3945
16.0401,50.8532
16.0921,51.2477
16.1442,51.2844
16.1963,51.3119
16.2484,51.5780
16.3005,51.5321
16.3525,52.0917
16.4046,52.4404
16.4567,52.3670
16.5088,52.5780
16.5608,53.0183
16.6129,53.0917
16.6650,53.1009
16.7171,53.2294
16.7692,53.6789
16.8212,53.6422
16.8733,53.9358
16.9254,54.0734
16.9775,54.2018
17.0295,53.9817
17.0816,54.2294
17.1337,54.5321
17.1858,54.6697
17.2379,55.0275
17.2899,55.1101
17.3420,55.4037
17.3941,55.6881
17.4462,56.1009
17.4982,56.3670
17.5503,56.2844
17.6024,56.5688
17.6545,56.6055
17.7066,57.0642
17.7586,57.0000
17.8107,57.2294
17.8628,57.5413
17.9149,57.8899
17.9670,57.8624
18.0190,58.0642
18.0711,57.8257
18.1232,58.4128
18.1753,58.4954
18.2273,58.9541
18.2794,58.8073
18.3315,58.7248
18.3836,58.9908
18.4357,59.5046
18.4877,59.4587
18.5398,59.7156
18.5919,60.1193
18.6440,60.5138
18.6960,60.5138
18.7481,60.5138
18.8002,60.6881
18.8523,61.4128
18.9044,61.5321
18.9564,62.3395
19.0085,62.4312
19.0606,63.0550
19.1127,63.3486
19.1647,63.5963
19.2168,63.5229
19.2689,63.8165
19.3210,64.3211
19.3731,65.3486
19.4251,65.5138
19.4772,65.7706
19.5293,65.8257
19.5814,66.5688
19.6335,66.6973
19.6855,67.1560
19.7376,67.7431
19.7897,67.7615
19.8418,67.6239
19.8938,68.0183
19.9459,67.9633
19.9980,68.4495
20.0501,68.2661
20.1022,68.4495
20.1542,68.6606
20.2063,68.8349
20.2584,68.8716
20.3105,68.8440
20.3625,69.2202
20.4146,69.5872
20.4667,69.9174
20.5188,69.8257
20.5709,70.0000
20.6229,70.0000
20.6750,70.2385
20.7271,70.1560
20.7792,70.1835
20.8312,70.4037
20.8833,70.3303
20.9354,70.7156
20.9875,70.5596
21.0396,70.4587
21.0916,70.1651
21.1437,70.2936
21.1958,70.6514
21.2479,70.5688
21.3000,69.9908
21.3520,69.8991
21.4041,69.8532
21.4562,70.3394
21.5083,70.5688
21.5603,71.0642
21.6124,71.1284
21.6645,71.0550
21.7166,71.0367
21.7687,71.4220
21.8207,71.5596
21.8728,72.1468
21.9249,72.3853
21.9770,72.4862
22.0290,72.4495
22.0811,72.9633
22.1332,73.4404
22.1853,73.6881
22.2374,73.7706
22.2894,74.0367
22.3415,74.2844
22.3936,74.5963
22.4457,74.6973
22.4977,74.9725
22.5498,75.0275
22.6019,75.1835
22.6540,75.2294
22.7061,75.0642
22.7581,75.1376
22.8102,75.4495
22.8623,75.3578
22.9144,75.9725
22.9665,75.6697
23.0185,76.3211
23.0706,76.3119
23.1227,76.5046
23.1748,76.5138
23.2268,76.3486
23.2789,76.0000
23.3310,76.1468
23.3831,76.0459
23.4352,76.0459
23.4872,76.1927
23.5393,76.0734
23.5914,75.9908
23.6435,76.2752
23.6955,76.4954
23.7476,76.4862
23.7997,76.8440
23.8518,76.5780
23.9039,76.9908
23.9559,76.9908
24.0080,77.2385
24.0601,77.1743
24.1122,77.4312
24.1642,77.3303
24.2163,77.4128
24.2684,77.5321
24.3205,77.6606
24.3726,77.7431
24.4246,77.4220
24.4767,77.3394
24.5288,77.3486
24.5809,77.6973
24.6330,77.8624
24.6850,78.0092
24.7371,77.7248
24.7892,77.8257
24.8413,77.5138
24.8933,77.3394
24.9454,77.3027
24.9975,77.8349
25.0496,78.0734
25.1017,78.1284
25.1537,77.9633
25.2058,77.9725
25.2579,78.3578
25.3100,78.7431
25.3620,78.8440
25.4141,78.5505
25.4662,78.9725
25.5183,79.6055
25.5704,79.7523
25.6224,79.3303
25.6745,79.9083
25.7266,80.2294
25.7787,80.4587
25.8307,80.6055
25.8828,80.2569
25.9349,80.3670
25.9870,80.0734
26.0391,80.6881
26.0911,81.4037
26.1432,81.2477
26.1953,81.4312
26.2474,81.8532
26.2995,82.0183
26.3515,81.7248
26.4036,81.8624
26.4557,81.9541
26.5078,81.9633
26.5598,81.9358
26.6119,81.8349
26.6640,81.7156
26.7161,81.3945
26.7682,80.9358
26.8202,80.7890
26.8723,80.8073
26.9244,80.4954
26.9765,80.4954
27.0285,80.2110
27.0806,79.4312
27.1327,79.6789
27.1848,80.7798
27.2369,80.8440
27.2889,81.2110
27.3410,81.3578
27.3931,81.7798
27.4452,82.3394
27.4972,82.0826
27.5493,82.0917
27.6014,82.5596
27.6535,82.0826
27.7056,81.5046
27.7576,81.4220
27.8097,80.8532
27.8618,80.6881
27.9139,80.2294
27.9660,79.7339
28.0180,79.5413
28.0701,79.0917
28.1222,79.0459
28.1743,79.0917
28.2263,79.2752
28.2784,79.2294
28.3305,79.6881
28.3826,79.5046
28.4347,79.2477
28.4867,79.7890
28.5388,79.6147
28.5909,79.7248
28.6430,79.3853
28.6950,79.5872
28.7471,79.9450
28.7992,79.5505
28.8513,79.2385
28.9034,79.4862
28.9554,80.0000
29.0075,79.8532
29.0596,79.6514
29.1117,79.3670
29.1637,78.8165
29.2158,78.7064
29.2679,78.8440
29.3200,78.8807
29.3721,78.5963
29.4241,78.4037
29.4762,78.8349
29.5283,78.3670
29.5804,78.2844
29.6325,78.0183
29.6845,77.5688
29.7366,77.2385
29.7887,77.3486
29.8408,76.4312
29.8928,76.1927
29.9449,75.9725
29.9970,75.8807
30.0491,75.4862
30.1012,75.3761
30.1532,74.8624
30.2053,75.0000
30.2574,74.5505
30.3095,74.2844
30.3615,74.4220
30.4136,74.5505
30.4657,74.4587
30.5178,74.3761
30.5699,74.7339
30.6219,74.4954
30.6740,74.8165
30.7261,74.5688
30.7782,74.6973
30.8302,75.1927
30.8823,75.2202
30.9344,76.1927
30.9865,75.7615
31.0386,76.3761
31.0906,76.4128
31.1427,76.9450
31.1948,76.8899
31.2469,77.5780
31.2990,77.2018
31.3510,77.3945
31.4031,77.8165
31.4552,77.4128
31.5073,77.7615
31.5593,77.7890
31.6114,77.8899
31.6635,77.9633
31.7156,77.9817
31.7677,77.7431
31.8197,77.6789
31.8718,77.3945
31.9239,77.2385
31.9760,77.5872
32.0280,76.4037
32.0801,75.9725
32.1322,76.8349
32.1843,77.9633
32.2364,77.7156
32.2884,77.7615
32.3405,77.2844
32.3926,75.5505
32.4447,74.1743
32.4967,74.2202
32.5488,75.1651
32.6009,76.1927
32.6530,75.7156
32.7051,76.0826
32.7571,77.2569
32.8092,78.0550
32.8613,78.1835
32.9134,77.6606
32.9655,77.0092
33.0175,76.6422
33.0696,75.7248
33.1217,76.1376
33.1738,75.7156
33.2258,77.1193
33.2779,75.7982
33.3300,72.9083
33.3821,70.8807
33.4342,69.1743
33.4862,68.2385
33.5383,68.9266
33.5904,69.8624
33.6425,68.6422
33.6945,66.6147
33.7466,67.1743
33.7987,66.8716
33.8508,65.7798
33.9029,66.5229
33.9549,66.1651
34.0070,65.3119
34.0591,65.7706
34.1112,65.0000
34.1632,64.7982
34.2153,64.5963
34.2674,64.7248
34.3195,64.5138
34.3716,64.9908
34.4236,64.6789
34.4757,65.2110
34.5278,65.3670
34.5799,65.0092
34.6320,64.8624
34.6840,64.6239
34.7361,64.4220
34.7882,64.5413
34.8403,63.5138
34.8923,63.6881
34.9444,63.6972
34.9965,63.3303
35.0486,63.4404
35.1007,63.6972
35.1527,63.0367
35.2048,62.5596
35.2569,62.6239
35.3090,62.6972
35.3610,62.5138
35.4131,62.3211
35.4652,61.9266
35.5173,61.4495
35.5694,61.2661
35.6214,61.0550
35.6735,60.9083
35.7256,60.7156
35.7777,60.6789
35.8298,60.6239
35.8818,60.4862
35.9339,60.1101
35.9860,59.8991
36.0381,59.7064
36.0901,59.5688
36.1422,59.4128
36.1943,59.2661
36.2464,59.0734
36.2985,59.1009
36.3505,58.8440
36.4026,58.2844
36.4547,58.0642
36.5068,58.0275
36.5588,57.7064
36.6109,57.2661
36.6630,56.9908
36.7151,56.7706
36.7672,56.6330
36.8192,56.2294
36.8713,55.7706
36.9234,55.6147
36.9755,55.1927
37.0275,54.7798
37.0796,54.3303
37.1317,54.1284
37.1838,53.9908
37.2359,53.7064
37.2879,53.4312
37.3400,53.1560
37.3921,52.9541
37.4442,52.5688
37.4963,52.4312
37.5483,52.2477
37.6004,52.2844
37.6525,52.0642
37.7046,51.7431
37.7566,51.3945
37.8087,51.2936
37.8608,51.2844
37.9129,50.7706
37.9650,50.5046
38.0170,50.4404
38.0691,50.4404
38.1212,50.4220
38.1733,50.0826
38.2253,50.1560
38.2774,49.8991
38.3295,49.6514
38.3816,49.3670
38.4337,49.4679
38.4857,49.0550
38.5378,49.3853
38.5899,49.1376
38.6420,48.6514
38.6940,48.4587
38.7461,48.3670
38.7982,48.1560
38.8503,48.0459
38.9024,47.7706
38.9544,47.4587
39.0065,47.4679
39.0586,47.1560
39.1107,47.1651
39.1628,46.9083
39.2148,46.8257
39.2669,46.8899
39.3190,46.8991
39.3711,46.6147
39.4231,46.2661
39.4752,46.1101
39.5273,45.8440
39.5794,45.6330
39.6315,45.4862
39.6835,45.2018
39.7356,44.9817
39.7877,45.1376
39.8398,44.8165
39.8918,44.4312
39.9439,44.2294
39.9960,44.2385
40.0481,44.1927
40.1002,43.7248
40.1522,43.4404
40.2043,43.2477
40.2564,42.9633
40.3085,42.7156
40.3605,42.3670
40.4126,42.2752
40.4647,42.0183
40.5168,41.6972
40.5689,41.0459
40.6209,40.7248
40.6730,40.5872
40.7251,40.3945
40.7772,40.2661
40.8293,39.9266
40.8813,39.8073
40.9334,39.3945
40.9855,39.0367
41.0376,38.6972
41.0896,38.4128
41.1417,38.2752
41.1938,37.6972
41.2459,37.1376
41.2980,36.8073
41.3500,36.5872
41.4021,36.1284
41.4542,35.6055
41.5063,35.3211
41.5583,35.5872
41.6104,34.8807
41.6625,34.4495
41.7146,34.1009
41.7667,33.4679
41.8187,33.3761
41.8708,32.9450
41.9229,32.6789
41.9750,32.5505
42.0270,32.1376
42.0791,31.8532
42.1312,31.6606
42.1833,31.6055
42.2354,31.3945
42.2874,31.0275
42.3395,30.5321
42.3916,30.1468
42.4437,29.9450
42.4958,29.7615
42.5478,29.3761
42.5999,29.1193
42.6520,29.0183
42.7041,28.6606
42.7561,28.1376
42.8082,28.0642
42.8603,27.6789
42.9124,27.2202
42.9645,26.9541
43.0165,26.6330
43.0686,26.4128
43.1207,26.2936
43.1728,25.9725
43.2248,25.6881
43.2769,25.3486
43.3290,25.0826
43.3811,25.0092
43.4332,24.6606
43.4852,24.5138
43.5373,24.3119
43.5894,23.9817
43.6415,23.7064
43.6935,23.3853
43.7456,23.4220
43.7977,23.4220
43.8498,23.4128
43.9019,23.2752
43.9539,23.0734
44.0060,22.9541
44.0581,22.8716
44.1102,22.6789
44.1623,22.4954
44.2143,22.3211
44.2664,21.9266
44.3185,21.8165
44.3706,21.4679
44.4226,21.3853
44.4747,21.1651
44.5268,21.0367
44.5789,20.8899
44.6310,20.6881
44.6830,20.4771
44.7351,20.3853
44.7872,20.1284
44.8393,20.1927
44.8913,20.1651
44.9434,20.1743
44.9955,20.2844
45.0476,20.1468
45.0997,20.0092
45.1517,19.7798
45.2038,19.6514
45.2559,19.7706
45.3080,19.6330
45.3600,19.5138
45.4121,19.4495
45.4642,19.3761
45.5163,19.2752
45.5684,19.2477
45.6204,19.1927
45.6725,19.0917
45.7246,19.0183
45.7767,19.0734
45.8288,18.8807
45.8808,18.9083
45.9329,18.9358
45.9850,18.9174
46.0371,18.8624
46.0891,18.8440
46.1412,18.7890
46.1933,18.7798
46.2454,18.7064
46.2975,18.6514
46.3495,18.5688
46.4016,18.4771
46.4537,18.4312
46.5058,18.3211
46.5578,18.2844
46.6099,18.2385
46.6620,18.1101
46.7141,18.0917
46.7662,18.1009
46.8182,18.0734
46.8703,18.1009
46.9224,18.1101
46.9745,18.1193
47.0265,18.0550
47.0786,18.0000
47.1307,18.0826
47.1828,18.0092
47.2349,17.9358
47.2869,17.9083
47.3390,17.9450
47.3911,18.0000
47.4432,17.9908
47.4953,17.9633
47.5473,17.8440
47.5994,17.7982
47.6515,17.7064
47.7036,17.7615
47.7556,17.7890
47.8077,17.8440
47.8598,17.9266
47.9119,18.0826
47.9640,18.1009
48.0160,18.1835
48.0681,18.1651
48.1202,18.1927
48.1723,18.1651
48.2243,18.3486
48.2764,18.4862
48.3285,18.5229
48.3806,18.5413
48.4327,18.5505
48.4847,18.4587
48.5368,18.4587
48.5889,18.5872
48.6410,18.7431
48.6930,18.7156
48.7451,18.7156
48.7972,18.7890
48.8493,18.8532
48.9014,18.8716
48.9534,18.8899
49.0055,18.9266
49.0576,18.9817
49.1097,18.9541
49.1618,18.9817
49.2138,19.1560
49.2659,19.1468
49.3180,19.2661
49.3701,19.2936
49.4221,19.4128
49.4742,19.4404
49.5263,19.5046
49.5784,19.6239
49.6305,19.6789
49.6825,19.7615
49.7346,19.7890
49.7867,19.8532
49.8388,19.8807
49.8908,19.9174
49.9429,19.9174
49.9950,19.8165
50.0471,19.8349
50.0992,19.9083
50.1512,19.8440
50.2033,19.8349
50.2554,19.8257
50.3075,19.9266
50.3595,19.9358
50.4116,20.0734
50.4637,20.0734
50.5158,20.1743
50.5679,20.2844
50.6199,20.3394
50.6720,20.3486
50.7241,20.3853
50.7762,20.4771
50.8283,20.6606
50.8803,20.6239
50.9324,20.5321
50.9845,20.5872
51.0366,20.5321
51.0886,20.6514
51.1407,20.7248
51.1928,20.8624
51.2449,20.8532
51.2970,20.8991
51.3490,21.0092
51.4011,20.9817
51.4532,21.1009
51.5053,21.1009
51.5573,21.1468
51.6094,21.0917
51.6615,21.1743
51.7136,21.1927
51.7657,21.2110
51.8177,21.3028
51.8698,21.4220
51.9219,21.4954
51.9740,21.6147
52.0260,21.6055
52.0781,21.6514
52.1302,21.7339
52.1823,21.7982
52.2344,21.8073
52.2864,21.7615
52.3385,21.6514
52.3906,21.7064
52.4427,21.7248
52.4948,21.8073
52.5468,21.9174
52.5989,22.0092
52.6510,22.0367
52.7031,22.0734
52.7551,21.9358
52.8072,21.9266
52.8593,21.8073
52.9114,21.7615
52.9635,21.9174
53.0155,21.8807
53.0676,21.9817
53.1197,22.1009
53.1718,22.1743
53.2238,22.2569
53.2759,22.4128
53.3280,22.4404
53.3801,22.2844
53.4322,22.3394
53.4842,22.3486
53.5363,22.1927
53.5884,22.2110
53.6405,22.1284
53.6925,22.1284
53.7446,21.9725
53.7967,22.0642
53.8488,21.9633
53.9009,22.0275
53.9529,22.1376
54.0050,22.1193
54.0571,22.1743
54.1092,22.3394
54.1613,22.2752
54.2133,22.4220
54.2654,22.3303
54.3175,22.3028
54.3696,22.3670
54.4216,22.5046
54.4737,22.5596
54.5258,22.4679
54.5779,22.4587
54.6300,22.5963
54.6820,22.6330
54.7341,22.6239
54.7862,22.7523
54.8383,22.6147
54.8903,22.6330
54.9424,22.6422
54.9945,22.6972
55.0466,22.8440
55.0987,22.9633
55.1507,22.9908
55.2028,23.0275
55.2549,22.9633
55.3070,23.0275
55.3590,22.9817
55.4111,22.8532
55.4632,22.8349
55.5153,22.8440
55.5674,22.6239
55.6194,22.6881
55.6715,22.7706
55.7236,22.7890
55.7757,22.9174
55.8278,22.7982
55.8798,22.7982
55.9319,22.7706
55.9840,22.8165
56.0361,22.6881
56.0881,22.4312
56.1402,22.3761
56.1923,22.2752
56.2444,22.1468
56.2965,22.0734
56.3485,22.0459
56.4006,22.1468
56.4527,22.0826
56.5048,22.0183
56.5568,21.8716
56.6089,21.9358
56.6610,21.7523
56.7131,21.7798
56.7652,21.6697
56.8172,21.6055
56.8693,21.5596
56.9214,21.6514
56.9735,21.6881
57.0255,21.6147
57.0776,21.5505
57.1297,21.4954
57.1818,21.3761
57.2339,21.2936
57.2859,21.2018
57.3380,21.2661
57.3901,21.2385
57.4422,21.2569
57.4943,21.1376
57.5463,21.1101
57.5984,21.1376
57.6505,21.1101
57.7026,21.1284
57.7546,21.0917
57.8067,21.2110
57.8588,21.1284
57.9109,21.1009
57.9630,21.0917
58.0150,21.1651
58.0671,21.1651
58.1192,21.2294
58.1713,21.2110
58.2233,21.1468
58.2754,21.1560
58.3275,21.1835
58.3796,21.1743
58.4317,21.1468
58.4837,21.1468
58.5358,21.1376
58.5879,21.1009
58.6400,21.0550
58.6920,21.0826
58.7441,21.1651
58.7962,20.9633
58.8483,21.1193
58.9004,21.1193
58.9524,21.1743
59.0045,21.0092
59.0566,20.9725
59.1087,20.9358
59.1608,20.8349
59.2128,20.7706
59.2649,20.7339
59.3170,20.7706
59.3691,20.7706
59.4211,20.6606
59.4732,20.7706
59.5253,20.6697
59.5774,20.5505
59.6295,20.4404
59.6815,20.4771
59.7336,20.3578
59.7857,20.3119
59.8378,20.3211
59.8898,20.1743
59.9419,20.1835
59.9940,20.2385
60.0461,20.1743
60.0982,20.0642
60.1502,20.0183
60.2023,19.9266
60.2544,19.8532
60.3065,19.7615
60.3585,19.6514
60.4106,19.5413
60.4627,19.5505
60.5148,19.4862
60.5669,19.5138
60.6189,19.4128
60.6710,19.4312
60.7231,19.4037
60.7752,19.3670
60.8273,19.3670
60.8793,19.2110
60.9314,19.0459
60.9835,18.9725
61.0356,18.8807
61.0876,18.9174
61.1397,18.9174
61.1918,18.9725
61.2439,19.0092
61.2960,18.9541
61.3480,18.9541
61.4001,18.9358
61.4522,18.9174
61.5043,18.8899
61.5563,18.8257
61.6084,18.8165
61.6605,18.7798
61.7126,18.7706
61.7647,18.7615
61.8167,18.7523
61.8688,18.7431
61.9209,18.6514
61.9730,18.6606
62.0250,18.6147
62.0771,18.5596
62.1292,18.5321
62.1813,18.5688
62.2334,18.5872
62.2854,18.6055
62.3375,18.5229
62.3896,18.5046
62.4417,18.4771
62.4938,18.3394
62.5458,18.2936
62.5979,18.2936
62.6500,18.2294
62.7021,18.2477
62.7541,18.2661
62.8062,18.2385
62.8583,18.1376
62.9104,18.1651
62.9625,18.0367
63.0145,18.0826
63.0666,18.0000
63.1187,17.9174
63.1708,17.8899
63.2228,17.7339
63.2749,17.8073
63.3270,17.8073
63.3791,17.8073
63.4312,17.8073
63.4832,17.8257
63.5353,17.7156
63.5874,17.7156
63.6395,17.5872
63.6915,17.6330
63.7436,17.5596
63.7957,17.5872
63.8478,17.5780
63.8999,17.5321
63.9519,17.4679
64.0040,17.5046
64.0561,17.4587
64.1082,17.5046
64.1602,17.3945
64.2123,17.3945
64.2644,17.3670
64.3165,17.3945
64.3686,17.3761
64.4206,17.4037
64.4727,17.3486
64.5248,17.4128
64.5769,17.3303
64.6290,17.3119
64.6810,17.2569
64.7331,17.2752
64.7852,17.2936
64.8373,17.2661
64.8893,17.2752
64.9414,17.2294
64.9935,17.2385
65.0456,17.2569
65.0977,17.1651
65.1497,17.2110
65.2018,17.2018
65.2539,17.2294
65.3060,17.1835
65.3580,17.2110
65.4101,17.1743
65.4622,17.2110
65.5143,17.1835
65.5664,17.2202
65.6184,17.1927
65.6705,17.1835
65.7226,17.1927
65.7747,17.1101
65.8268,17.1284
65.8788,17.1468
65.9309,17.1376
65.9830,17.1376
66.0351,17.1193
66.0871,17.1284
66.1392,17.1009
66.1913,17.0917
66.2434,17.1284
66.2955,17.1193
66.3475,17.1009
66.3996,17.1009
66.4517,17.1193
66.5038,17.0642
66.5558,17.0183
66.6079,17.0550
